"Latest: Time (s)","Latest: Position (m)","Latest: Velocity (m/s)","Latest: Acceleration (m/s²)"
0.05,0.0327565,0.133198333333,1.22781296296
0.1,0.038416,0.190555555556,1.36945925926
0.15,0.050078,0.272113333333,1.36072546296
0.2,0.066542,0.33271,1.14111018519
0.25,0.0835205,0.381015833333,1.05424861111
0.3,0.104272,0.439611666667,0.837015277778
0.35,0.1277675,0.477055833333,0.0652652777778
0.4,0.153321,0.450759166667,-0.971833333333
0.45,0.173558,0.375585,-1.82695138889
0.5,0.1915655,0.262395,-2.3195375
0.55,0.2001405,0.134341666667,-2.35860138889
0.6,0.204428,0.02401,-2.22664166667
0.65,0.202713,-0.0860358333333,-2.15280138889
0.7,0.1956815,-0.19208,-2.04323194444
0.75,0.183505,-0.292979166667,-1.78264722222
0.8,0.166012,-0.374155833333,-1.32150277778
0.85,0.1456035,-0.427320833333,-0.712201388889
0.9,0.122794,-0.447615,-0.0090513888889
0.95,0.0999845,-0.426463333333,0.618352777778
1,0.079919,-0.383016666667,1.11856111111
1.05,0.0612255,-0.3147025,1.57398888889
1.1,0.04802,-0.223521666667,1.93937916667
1.15,0.038759,-0.12005,2.25903611111
1.2,0.035672,0.00200083333333,2.52152638889
1.25,0.0385875,0.138629166667,2.42720138889
1.3,0.0499065,0.2546775,1.86172777778
1.35,0.0649985,0.325564166667,1.22527222222
1.4,0.0828345,0.3712975,0.828440277778
1.45,0.102214,0.4073125,0.490680555556
1.5,0.123823,0.424748333333,-0.0309652777778
1.55,0.145432,0.406169166667,-0.6731375
1.6,0.1648115,0.357291666667,-1.29244305556
1.65,0.1819615,0.273256666667,-1.73024444444
1.7,0.19208,0.1809325,-2.01560138889
1.75,0.200312,0.0734591666667,-2.28380833333
1.8,0.199969,-0.0528791666667,-2.2981
1.85,0.194481,-0.161781666667,-2.03894444444
1.9,0.1836765,-0.256964166667,-1.71214166667
1.95,0.168413,-0.3335675,-1.35151527778
2,0.1500625,-0.393020833333,-0.902280555556
2.05,0.1287965,-0.428464166667,-0.235336111111
2.1,0.10633,-0.418745833333,0.520216666667
2.15,0.0862645,-0.371869166667,1.08140277778
2.2,0.068943,-0.307270833333,1.45775
2.25,0.055223,-0.2255225,1.76073333333
2.3,0.0461335,-0.1294825,1.97415555556
2.35,0.042189,-0.0265825,2.10039861111
2.4,0.0433895,0.0814625,2.13374583333
2.45,0.0502495,0.190936666667,1.92985138889
2.5,0.062769,0.280688333333,1.46965972222
2.55,0.079233,0.334425,1.10712777778
2.6,0.0958685,0.389305,0.768415277778
2.65,0.1185065,0.420746666667,0.0843208333333
2.7,0.139258,0.396450833333,-0.584052777778
2.75,0.158123,0.356434166667,-1.02661805556
2.8,0.175273,0.296123333333,-1.50205416667
2.85,0.188307,0.206085833333,-1.95795833333
2.9,0.196196,0.0966116666667,-2.23283472222
2.95,0.1980825,-0.0202941666667,-2.32573055556
3,0.194138,-0.1380575,-2.23712222222
3.05,0.1843625,-0.250675833333,-1.81265972222
3.1,0.1682415,-0.324135,-1.18430277778
3.15,0.151263,-0.36358,-0.730780555556
3.2,0.132055,-0.3970225,-0.272970833333
3.25,0.1109605,-0.397594166667,0.402548611111
3.3,0.091238,-0.351860833333,0.887988888889
3.35,0.0759745,-0.3026975,1.13047083333
3.4,0.0608825,-0.243815833333,1.50681805556
3.45,0.050764,-0.151491666667,1.85982222222
3.5,0.0457905,-0.0525933333333,1.98701805556
3.55,0.0454475,0.0483058333333,1.99892777778
3.6,0.0505925,0.149205,1.89698055556
3.65,0.0605395,0.240671666667,1.65259305556
3.7,0.0749455,0.316131666667,1.29101388889
3.75,0.0924385,0.372155,0.790329166667
3.8,0.1126755,0.39788,0.168641666667
3.85,0.1329125,0.387875833333,-0.413981944444
3.9,0.1517775,0.354433333333,-0.901327777778
3.95,0.168756,0.2975525,-1.34008194444
4,0.1819615,0.218376666667,-1.67927083333
4.05,0.190708,0.128053333333,-1.93413888889
4.1,0.1949955,0.0248675,-2.13184027778
4.15,0.193452,-0.0888941666667,-2.12326527778
4.2,0.185906,-0.1929375,-1.84600694444
4.25,0.1737295,-0.274685833333,-1.48442777778
4.3,0.158123,-0.33957,-1.14095138889
4.35,0.1397725,-0.393020833333,-0.585481944444
4.4,0.117992,-0.404168333333,0.210563888889
4.45,0.098441,-0.367581666667,0.796998611111
4.5,0.080948,-0.314988333333,0.984219444444
4.55,0.0673995,-0.271541666667,1.26147777778
4.6,0.053165,-0.197796666667,1.87506666667
4.65,0.046648,-0.0794616666667,2.27999722222
4.7,0.045276,0.0417316666667,2.12945833333
4.75,0.0512785,0.138343333333,1.70594861111
4.8,0.059682,0.208658333333,1.4105875
4.85,0.07203,0.276400833333,1.23956388889
4.9,0.087465,0.335854166667,0.931340277778
4.95,0.105987,0.373298333333,0.428273611111
5,0.1253665,0.3798725,-0.163877777778
5.05,0.144403,0.357291666667,-0.768891666667
5.1,0.1617245,0.301554166667,-1.27005277778
5.15,0.17493,0.225236666667,-1.53397222222
5.2,0.184191,0.146060833333,-1.6807
5.25,0.189679,0.0588816666667,-1.86553888889
5.3,0.190365,-0.0414458333333,-1.99130555556
5.35,0.185563,-0.14406,-1.91841805556
5.4,0.1757875,-0.236955833333,-1.63210833333
5.45,0.161553,-0.310129166667,-1.19240138889
5.5,0.1442315,-0.356434166667,-0.688381944444
5.55,0.1257095,-0.3815875,-0.042875
5.6,0.105301,-0.364151666667,0.678377777778
5.65,0.0883225,-0.304984166667,1.01709027778
5.7,0.0752885,-0.255820833333,1.07902083333
5.75,0.062769,-0.204656666667,1.40963472222
5.8,0.0540225,-0.118049166667,1.87220833333
5.85,0.0505925,-0.01029,2.00559722222
5.9,0.053165,0.0900375,1.74167777778
5.95,0.060025,0.166355,1.35389722222
6,0.070315,0.2203775,1.18716111111
6.05,0.0818055,0.280688333333,1.20145277778
6.1,0.0982695,0.345000833333,0.988983333333
6.15,0.11662,0.388733333333,0.3087
6.2,0.1380575,0.3815875,-0.635502777778
6.25,0.1558935,0.319561666667,-1.33293611111
6.3,0.170128,0.240385833333,-1.63496666667
6.35,0.180075,0.153778333333,-1.75215833333
6.4,0.185563,0.0637408333333,-1.78026527778
6.45,0.1864205,-0.0251533333333,-1.76025694444
6.5,0.1829905,-0.112046666667,-1.72690972222
6.55,0.175273,-0.199225833333,-1.59495
6.6,0.162925,-0.276115,-1.23337083333
6.65,0.147147,-0.32585,-0.696480555556
6.7,0.1298255,-0.3455725,-0.147680555556
6.75,0.112161,-0.339284166667,0.329661111111
6.8,0.0955255,-0.310986666667,0.709819444444
6.85,0.0807765,-0.266396666667,1.00041666667
6.9,0.0687715,-0.211230833333,1.30101805556
6.95,0.059339,-0.1380575,1.65592777778
7,0.054537,-0.0437325,1.90412638889
7.05,0.05488,0.0571666666667,1.88935833333
7.1,0.060368,0.150348333333,1.58161111111
7.15,0.070315,0.219234166667,1.10712777778
7.2,0.083006,0.256964166667,0.8189125
7.25,0.0958685,0.29498,0.778895833333
7.3,0.1123325,0.3387125,0.528315277778
7.35,0.129997,0.359578333333,-0.242958333333
7.4,0.1497195,0.31556,-1.04900833333
7.45,0.1620675,0.241815,-1.32055
7.5,0.1733865,0.180360833333,-1.38962638889
7.55,0.180418,0.108045,-1.63020277778
7.6,0.184534,0.0168641666667,-1.85172361111
7.65,0.1823045,-0.08232,-1.83123888889
7.7,0.175959,-0.169213333333,-1.62829722222
7.75,0.165326,-0.246388333333,-1.32531388889
7.8,0.15092,-0.303840833333,-0.905138888889
7.85,0.1346275,-0.338998333333,-0.363008333333
7.9,0.1164485,-0.341856666667,0.238670833333
7.95,0.099813,-0.31213,0.697433333333
8,0.085064,-0.268111666667,0.965163888889
8.05,0.0728875,-0.215518333333,1.20335833333
8.1,0.0632835,-0.149205,1.48823888889
8.15,0.057624,-0.0657416666667,1.72071666667
8.2,0.056595,0.025725,1.79550972222
8.25,0.0601965,0.117191666667,1.65211666667
8.3,0.0684285,0.1963675,1.26528888889
8.35,0.080605,0.242958333333,0.917525
8.4,0.0927815,0.281831666667,0.807955555556
8.45,0.1085595,0.32585,0.593104166667
8.5,0.1257095,0.349574166667,-0.00476388888888
8.55,0.144403,0.327850833333,-0.728875
8.6,0.159152,0.27097,-1.22289027778
8.65,0.1715,0.202941666667,-1.54874027778
8.7,0.1799035,0.115476666667,-1.78026527778
8.75,0.183162,0.02058,-1.81408888889
8.8,0.18179,-0.0677425,-1.74310694444
8.85,0.176302,-0.152635,-1.65640416667
8.9,0.166698,-0.2375275,-1.35723194444
8.95,0.151949,-0.2941225,-0.789376388889
9,0.1366855,-0.316131666667,-0.214375
9.05,0.1198785,-0.311844166667,0.174834722222
9.1,0.105301,-0.295265833333,0.410647222222
9.15,0.0903805,-0.272685,0.713630555556
9.2,0.077518,-0.22638,1.11284444444
9.25,0.0673995,-0.159209166667,1.41963888889
9.3,0.061397,-0.0814625,1.58828055556
9.35,0.059339,-0.000571666666667,1.69451527778
9.4,0.0608825,0.0920383333333,1.59780833333
9.45,0.0691145,0.163496666667,1.33007777778
9.5,0.077518,0.220949166667,1.16334166667
9.55,0.090895,0.281831666667,0.906091666667
9.6,0.10633,0.316703333333,0.420651388889
9.65,0.1229655,0.324135,-0.110522222222
9.7,0.139258,0.304126666667,-0.560233333333
9.75,0.153664,0.265825,-0.906091666667
9.8,0.166012,0.213803333333,-1.24099305556
9.85,0.1754445,0.141773333333,-1.53174907407
9.9,0.180418,0.0557375,-1.5565212963
9.95,0.181104,-0.0209611111111,-1.30149444444
10,0.1768165,-0.0691716666667,-1.0591712963
